freq,psd_x,psd_y,psd_z,psd_xyz,zv(148.6),mzv(110.4),ei(140.0),2hump_ei(123.4),3hump_ei(112.8)
0.0,0.000e+00,0.000e+00,0.000e+00,0.000e+00,1.000,1.000,1.000,1.000,1.000
1.5,2.619e-12,4.098e-15,6.738e-15,2.630e-12,0.998,0.997,0.997,0.994,0.991
3.1,3.267e-01,8.142e-04,1.328e-03,3.289e-01,0.997,0.993,0.993,0.987,0.980
4.6,1.775e+01,1.094e-01,2.019e-01,1.806e+01,0.995,0.989,0.988,0.979,0.966
6.2,6.934e+01,6.059e-01,1.184e+00,7.113e+01,0.992,0.984,0.983,0.969,0.951
7.7,1.224e+02,1.189e+00,2.266e+00,1.259e+02,0.990,0.978,0.977,0.958,0.933
9.2,1.962e+02,1.550e+00,2.870e+00,2.006e+02,0.987,0.972,0.971,0.946,0.914
10.8,2.279e+02,1.602e+00,2.784e+00,2.322e+02,0.984,0.966,0.964,0.933,0.892
12.3,2.562e+02,1.276e+00,2.559e+00,2.601e+02,0.981,0.958,0.957,0.919,0.869
13.8,2.642e+02,1.245e+00,2.710e+00,2.682e+02,0.977,0.951,0.949,0.904,0.844
15.4,2.946e+02,1.101e+00,2.548e+00,2.982e+02,0.973,0.942,0.941,0.888,0.818
16.9,3.357e+02,1.063e+00,2.624e+00,3.394e+02,0.969,0.933,0.932,0.871,0.791
18.5,3.773e+02,1.105e+00,3.111e+00,3.815e+02,0.965,0.924,0.922,0.853,0.762
20.0,4.242e+02,1.018e+00,2.992e+00,4.282e+02,0.960,0.914,0.913,0.834,0.732
21.5,4.939e+02,9.410e-01,3.758e+00,4.986e+02,0.956,0.904,0.902,0.814,0.702
23.1,5.759e+02,9.733e-01,4.493e+00,5.814e+02,0.951,0.893,0.891,0.794,0.671
24.6,6.714e+02,1.308e+00,4.855e+00,6.776e+02,0.945,0.882,0.880,0.773,0.639
26.2,7.457e+02,2.109e+00,4.840e+00,7.527e+02,0.940,0.870,0.868,0.751,0.606
27.7,7.702e+02,2.503e+00,5.877e+00,7.786e+02,0.934,0.857,0.856,0.729,0.574
29.2,8.789e+02,2.022e+00,1.163e+01,8.926e+02,0.928,0.845,0.843,0.706,0.541
30.8,1.065e+03,1.966e+00,2.165e+01,1.089e+03,0.922,0.832,0.830,0.683,0.508
32.3,1.299e+03,2.234e+00,3.967e+01,1.341e+03,0.916,0.818,0.817,0.660,0.476
33.9,1.626e+03,2.714e+00,6.949e+01,1.699e+03,0.909,0.804,0.803,0.636,0.443
35.4,2.063e+03,3.298e+00,1.179e+02,2.185e+03,0.902,0.790,0.789,0.612,0.412
36.9,2.755e+03,4.291e+00,2.139e+02,2.973e+03,0.895,0.775,0.775,0.587,0.380
38.5,3.417e+03,7.453e+00,3.484e+02,3.772e+03,0.888,0.760,0.760,0.563,0.350
40.0,4.164e+03,7.823e+00,5.005e+02,4.672e+03,0.880,0.745,0.745,0.538,0.320
41.5,6.364e+03,7.460e+00,8.443e+02,7.216e+03,0.873,0.729,0.730,0.514,0.291
43.1,8.725e+03,1.829e+01,1.246e+03,9.990e+03,0.865,0.713,0.714,0.489,0.264
44.6,9.524e+03,7.155e+01,1.228e+03,1.082e+04,0.857,0.697,0.698,0.465,0.237
46.2,9.535e+03,1.510e+02,9.740e+02,1.066e+04,0.848,0.681,0.682,0.441,0.212
47.7,9.645e+03,1.975e+02,1.036e+03,1.088e+04,0.840,0.664,0.666,0.417,0.188
49.2,9.982e+03,1.912e+02,1.248e+03,1.142e+04,0.831,0.647,0.649,0.393,0.165
50.8,7.786e+03,1.102e+02,1.033e+03,8.929e+03,0.822,0.630,0.633,0.370,0.144
52.3,5.204e+03,3.601e+01,6.284e+02,5.869e+03,0.813,0.613,0.616,0.347,0.124
53.9,3.564e+03,3.682e+01,3.534e+02,3.954e+03,0.804,0.595,0.599,0.324,0.106
55.4,2.387e+03,4.207e+01,2.443e+02,2.674e+03,0.794,0.578,0.582,0.302,0.090
56.9,2.054e+03,3.502e+01,3.299e+02,2.419e+03,0.785,0.560,0.565,0.280,0.076
58.5,1.777e+03,2.056e+01,3.870e+02,2.185e+03,0.775,0.542,0.548,0.259,0.063
60.0,1.370e+03,1.102e+01,3.608e+02,1.742e+03,0.765,0.524,0.531,0.239,0.053
61.6,9.484e+02,6.773e+00,2.586e+02,1.214e+03,0.754,0.506,0.514,0.219,0.046
63.1,6.663e+02,1.023e+01,2.045e+02,8.811e+02,0.744,0.488,0.496,0.200,0.040
64.6,6.317e+02,1.651e+01,2.711e+02,9.193e+02,0.733,0.470,0.479,0.182,0.038
66.2,6.761e+02,2.278e+01,3.802e+02,1.079e+03,0.723,0.452,0.462,0.164,0.037
67.7,6.886e+02,4.381e+01,4.881e+02,1.220e+03,0.712,0.434,0.445,0.147,0.037
69.2,6.813e+02,7.067e+01,5.768e+02,1.329e+03,0.701,0.416,0.428,0.131,0.038
70.8,5.823e+02,9.136e+01,5.861e+02,1.260e+03,0.690,0.398,0.411,0.116,0.039
72.3,4.434e+02,9.583e+01,5.715e+02,1.111e+03,0.678,0.380,0.394,0.102,0.040
73.9,3.173e+02,8.930e+01,5.570e+02,9.636e+02,0.667,0.362,0.377,0.089,0.040
75.4,2.103e+02,7.435e+01,5.212e+02,8.059e+02,0.655,0.344,0.360,0.076,0.040
76.9,1.317e+02,5.698e+01,4.531e+02,6.417e+02,0.643,0.327,0.344,0.065,0.039
78.5,8.933e+01,5.401e+01,3.897e+02,5.331e+02,0.631,0.309,0.328,0.055,0.037
80.0,7.616e+01,6.712e+01,3.727e+02,5.160e+02,0.619,0.292,0.311,0.046,0.035
81.6,8.402e+01,7.945e+01,4.057e+02,5.692e+02,0.607,0.275,0.295,0.039,0.033
83.1,1.150e+02,7.957e+01,4.487e+02,6.433e+02,0.595,0.258,0.280,0.033,0.030
84.6,1.803e+02,6.436e+01,4.747e+02,7.193e+02,0.582,0.241,0.264,0.029,0.027
86.2,2.944e+02,4.951e+01,4.922e+02,8.361e+02,0.570,0.224,0.249,0.028,0.024
87.7,4.569e+02,3.918e+01,5.151e+02,1.011e+03,0.557,0.208,0.234,0.028,0.021
89.3,7.076e+02,3.147e+01,5.523e+02,1.291e+03,0.544,0.192,0.220,0.029,0.017
90.8,9.772e+02,2.821e+01,5.751e+02,1.581e+03,0.531,0.176,0.205,0.031,0.015
92.3,1.322e+03,3.368e+01,6.150e+02,1.971e+03,0.518,0.160,0.191,0.033,0.012
93.9,1.723e+03,4.010e+01,6.576e+02,2.421e+03,0.505,0.145,0.178,0.034,0.012
95.4,2.268e+03,4.261e+01,6.993e+02,3.010e+03,0.492,0.130,0.164,0.036,0.012
96.9,3.320e+03,6.095e+01,8.028e+02,4.184e+03,0.479,0.116,0.151,0.037,0.014
98.5,4.845e+03,1.149e+02,9.400e+02,5.900e+03,0.465,0.102,0.139,0.038,0.016
100.0,6.847e+03,2.359e+02,1.083e+03,8.166e+03,0.452,0.088,0.127,0.038,0.019
101.6,7.646e+03,3.377e+02,1.087e+03,9.071e+03,0.438,0.074,0.115,0.038,0.021
103.1,7.850e+03,4.250e+02,1.090e+03,9.365e+03,0.425,0.062,0.104,0.038,0.024
104.6,8.225e+03,5.098e+02,1.161e+03,9.897e+03,0.411,0.053,0.093,0.037,0.026
106.2,8.130e+03,5.342e+02,1.178e+03,9.843e+03,0.397,0.045,0.082,0.035,0.027
107.7,8.359e+03,5.637e+02,1.239e+03,1.016e+04,0.383,0.039,0.073,0.033,0.029
109.3,8.255e+03,5.569e+02,1.230e+03,1.004e+04,0.369,0.036,0.063,0.031,0.029
110.8,7.935e+03,5.650e+02,1.190e+03,9.690e+03,0.355,0.034,0.054,0.029,0.030
112.3,7.902e+03,6.160e+02,1.231e+03,9.749e+03,0.341,0.036,0.046,0.026,0.030
113.9,7.497e+03,6.137e+02,1.251e+03,9.362e+03,0.327,0.039,0.039,0.023,0.030
115.4,7.566e+03,6.040e+02,1.310e+03,9.481e+03,0.313,0.044,0.032,0.020,0.029
117.0,7.787e+03,5.813e+02,1.366e+03,9.734e+03,0.299,0.049,0.027,0.017,0.027
118.5,7.750e+03,5.159e+02,1.359e+03,9.625e+03,0.285,0.056,0.023,0.014,0.026
120.0,8.166e+03,5.079e+02,1.414e+03,1.009e+04,0.270,0.064,0.020,0.012,0.024
121.6,8.312e+03,4.976e+02,1.441e+03,1.025e+04,0.256,0.072,0.020,0.011,0.021
123.1,8.901e+03,5.106e+02,1.519e+03,1.093e+04,0.242,0.079,0.021,0.011,0.019
124.6,9.323e+03,5.012e+02,1.527e+03,1.135e+04,0.228,0.086,0.023,0.011,0.016
126.2,9.118e+03,4.829e+02,1.463e+03,1.106e+04,0.213,0.093,0.026,0.012,0.014
127.7,9.543e+03,4.802e+02,1.502e+03,1.153e+04,0.199,0.099,0.029,0.013,0.013
129.3,9.317e+03,4.395e+02,1.427e+03,1.118e+04,0.185,0.105,0.031,0.015,0.012
130.8,9.332e+03,3.716e+02,1.371e+03,1.107e+04,0.171,0.110,0.034,0.018,0.012
132.3,9.469e+03,3.262e+02,1.317e+03,1.111e+04,0.156,0.114,0.036,0.021,0.012
133.9,9.184e+03,2.898e+02,1.231e+03,1.071e+04,0.142,0.118,0.037,0.023,0.013
135.4,9.349e+03,2.707e+02,1.211e+03,1.083e+04,0.128,0.122,0.039,0.026,0.013
137.0,9.003e+03,2.480e+02,1.130e+03,1.038e+04,0.115,0.125,0.039,0.027,0.014
138.5,8.937e+03,2.674e+02,1.123e+03,1.033e+04,0.104,0.128,0.040,0.029,0.015
140.0,9.119e+03,3.153e+02,1.147e+03,1.058e+04,0.094,0.130,0.040,0.030,0.017
141.6,8.645e+03,3.525e+02,1.101e+03,1.010e+04,0.085,0.131,0.039,0.031,0.020
143.1,8.768e+03,4.431e+02,1.142e+03,1.035e+04,0.077,0.133,0.038,0.032,0.022
144.7,8.224e+03,5.023e+02,1.084e+03,9.810e+03,0.070,0.133,0.037,0.032,0.023
146.2,7.812e+03,5.673e+02,1.086e+03,9.466e+03,0.065,0.133,0.035,0.031,0.024
147.7,8.078e+03,7.156e+02,1.206e+03,1.000e+04,0.062,0.133,0.033,0.030,0.025
149.3,7.665e+03,7.620e+02,1.214e+03,9.641e+03,0.062,0.132,0.031,0.029,0.025
150.8,7.709e+03,8.729e+02,1.288e+03,9.870e+03,0.065,0.131,0.030,0.027,0.024
152.3,7.423e+03,9.532e+02,1.278e+03,9.654e+03,0.070,0.129,0.030,0.027,0.023
153.9,7.135e+03,1.052e+03,1.268e+03,9.454e+03,0.076,0.127,0.029,0.027,0.023
155.4,6.972e+03,1.272e+03,1.281e+03,9.524e+03,0.084,0.124,0.028,0.027,0.024
157.0,6.378e+03,1.392e+03,1.209e+03,8.979e+03,0.093,0.121,0.028,0.027,0.025
158.5,6.150e+03,1.613e+03,1.235e+03,8.998e+03,0.102,0.117,0.028,0.028,0.025
160.0,5.930e+03,1.848e+03,1.265e+03,9.043e+03,0.112,0.113,0.029,0.028,0.026
161.6,5.669e+03,2.007e+03,1.275e+03,8.950e+03,0.125,0.109,0.031,0.030,0.028
163.1,5.478e+03,2.180e+03,1.299e+03,8.957e+03,0.138,0.104,0.033,0.031,0.030
164.7,5.005e+03,2.072e+03,1.227e+03,8.304e+03,0.151,0.099,0.036,0.034,0.032
166.2,4.888e+03,2.103e+03,1.245e+03,8.236e+03,0.165,0.096,0.040,0.036,0.034
167.7,4.791e+03,2.021e+03,1.249e+03,8.061e+03,0.178,0.094,0.044,0.040,0.038
169.3,4.690e+03,1.919e+03,1.200e+03,7.809e+03,0.191,0.091,0.049,0.043,0.041
170.8,4.689e+03,1.933e+03,1.176e+03,7.799e+03,0.205,0.089,0.054,0.048,0.048
172.3,4.560e+03,1.868e+03,1.137e+03,7.565e+03,0.218,0.087,0.062,0.056,0.058
173.9,4.561e+03,1.766e+03,1.116e+03,7.442e+03,0.231,0.085,0.071,0.065,0.069
175.4,4.447e+03,1.649e+03,1.079e+03,7.176e+03,0.244,0.083,0.080,0.076,0.080
177.0,4.174e+03,1.472e+03,1.020e+03,6.666e+03,0.257,0.082,0.090,0.086,0.092
178.5,3.723e+03,1.277e+03,9.299e+02,5.930e+03,0.270,0.081,0.099,0.097,0.105
180.0,1.419e+03,4.785e+02,3.627e+02,2.261e+03,0.283,0.080,0.109,0.108,0.117
181.6,1.917e+02,9.192e+01,5.002e+01,3.336e+02,0.296,0.081,0.119,0.120,0.130
183.1,1.198e+02,7.257e+01,2.986e+01,2.222e+02,0.308,0.081,0.129,0.132,0.143
184.7,1.288e+02,9.478e+01,2.785e+01,2.514e+02,0.321,0.083,0.140,0.144,0.157
186.2,1.147e+02,7.338e+01,3.189e+01,2.199e+02,0.333,0.085,0.151,0.156,0.170
187.7,9.877e+01,5.719e+01,3.417e+01,1.901e+02,0.345,0.088,0.162,0.168,0.184
189.3,1.024e+02,5.632e+01,4.878e+01,2.075e+02,0.358,0.092,0.173,0.181,0.197
190.8,1.132e+02,4.596e+01,4.725e+01,2.064e+02,0.370,0.096,0.184,0.194,0.211
192.4,1.175e+02,5.237e+01,4.164e+01,2.115e+02,0.381,0.100,0.195,0.207,0.224
193.9,1.306e+02,9.127e+01,4.776e+01,2.696e+02,0.393,0.106,0.206,0.220,0.237
195.4,1.193e+02,6.559e+01,3.907e+01,2.240e+02,0.405,0.111,0.218,0.233,0.250
197.0,1.234e+02,6.969e+01,5.748e+01,2.505e+02,0.416,0.117,0.230,0.246,0.263
198.5,1.070e+02,7.841e+01,1.175e+02,3.028e+02,0.428,0.124,0.241,0.259,0.275
200.0,1.186e+02,6.377e+01,1.068e+02,2.892e+02,0.439,0.131,0.253,0.272,0.286
201.6,1.429e+02,6.421e+01,9.014e+01,2.972e+02,0.450,0.138,0.265,0.284,0.297
203.1,1.841e+02,1.050e+02,1.578e+02,4.470e+02,0.461,0.148,0.276,0.297,0.308
204.7,2.428e+02,1.160e+02,1.781e+02,5.369e+02,0.472,0.161,0.288,0.309,0.317
206.2,2.416e+02,9.499e+01,1.372e+02,4.738e+02,0.483,0.173,0.300,0.322,0.327
207.7,2.745e+02,1.172e+02,2.563e+02,6.481e+02,0.493,0.186,0.311,0.334,0.335
209.3,3.140e+02,1.547e+02,4.363e+02,9.050e+02,0.504,0.198,0.323,0.345,0.343
210.8,3.924e+02,1.638e+02,3.406e+02,8.968e+02,0.514,0.211,0.335,0.357,0.349
212.4,3.938e+02,1.373e+02,2.085e+02,7.396e+02,0.524,0.224,0.346,0.368,0.355
213.9,5.032e+02,1.631e+02,4.269e+02,1.093e+03,0.534,0.237,0.358,0.378,0.360
215.4,5.726e+02,1.715e+02,4.055e+02,1.150e+03,0.543,0.249,0.369,0.388,0.364
217.0,4.587e+02,1.483e+02,2.223e+02,8.294e+02,0.553,0.262,0.380,0.398,0.368
218.5,4.249e+02,1.405e+02,1.620e+02,7.274e+02,0.562,0.275,0.391,0.407,0.370
220.1,4.489e+02,1.621e+02,2.807e+02,8.917e+02,0.571,0.288,0.402,0.416,0.371
221.6,4.405e+02,1.647e+02,2.708e+02,8.760e+02,0.580,0.300,0.413,0.425,0.372
223.1,4.044e+02,1.517e+02,1.761e+02,7.322e+02,0.589,0.313,0.424,0.432,0.371
224.7,3.757e+02,1.498e+02,1.369e+02,6.624e+02,0.598,0.325,0.434,0.440,0.370
226.2,3.278e+02,1.676e+02,2.509e+02,7.463e+02,0.606,0.338,0.444,0.446,0.368
227.7,2.958e+02,1.652e+02,2.747e+02,7.358e+02,0.615,0.350,0.454,0.452,0.364
229.3,2.928e+02,1.326e+02,1.938e+02,6.192e+02,0.623,0.362,0.464,0.458,0.360
230.8,2.598e+02,8.336e+01,1.136e+02,4.568e+02,0.631,0.374,0.474,0.463,0.355
232.4,2.775e+02,7.772e+01,1.040e+02,4.592e+02,0.639,0.386,0.483,0.467,0.350
233.9,2.809e+02,7.711e+01,1.268e+02,4.848e+02,0.646,0.398,0.492,0.471,0.343
235.4,2.017e+02,5.924e+01,1.456e+02,4.065e+02,0.654,0.409,0.501,0.474,0.336
237.0,1.790e+02,4.979e+01,1.060e+02,3.347e+02,0.661,0.421,0.509,0.476,0.328
238.5,1.654e+02,4.701e+01,5.560e+01,2.680e+02,0.668,0.432,0.518,0.478,0.319
240.1,1.580e+02,5.362e+01,7.044e+01,2.821e+02,0.675,0.443,0.526,0.479,0.310
241.6,1.947e+02,7.433e+01,9.338e+01,3.624e+02,0.681,0.453,0.533,0.479,0.300
243.1,1.572e+02,6.293e+01,9.729e+01,3.174e+02,0.688,0.464,0.541,0.479,0.290
244.7,1.221e+02,4.858e+01,6.573e+01,2.364e+02,0.694,0.474,0.548,0.478,0.280
246.2,1.148e+02,5.012e+01,4.315e+01,2.081e+02,0.700,0.484,0.555,0.476,0.269
247.8,1.044e+02,4.847e+01,3.263e+01,1.855e+02,0.706,0.493,0.561,0.474,0.257
249.3,1.119e+02,5.567e+01,4.078e+01,2.084e+02,0.711,0.503,0.567,0.471,0.246
250.8,1.095e+02,6.068e+01,4.468e+01,2.149e+02,0.717,0.512,0.573,0.468,0.234
252.4,8.321e+01,4.991e+01,3.233e+01,1.655e+02,0.722,0.521,0.578,0.464,0.222
253.9,7.793e+01,4.445e+01,2.374e+01,1.461e+02,0.727,0.529,0.583,0.459,0.210
255.4,7.285e+01,3.566e+01,1.805e+01,1.266e+02,0.732,0.537,0.588,0.454,0.198
257.0,6.500e+01,3.210e+01,1.257e+01,1.097e+02,0.736,0.545,0.592,0.448,0.186
258.5,6.518e+01,2.971e+01,1.151e+01,1.064e+02,0.740,0.553,0.596,0.442,0.174
260.1,5.560e+01,2.774e+01,1.118e+01,9.453e+01,0.745,0.560,0.599,0.435,0.162
261.6,5.342e+01,3.040e+01,1.689e+01,1.007e+02,0.749,0.567,0.603,0.428,0.151
263.1,5.450e+01,2.898e+01,2.209e+01,1.056e+02,0.752,0.573,0.605,0.420,0.139
264.7,6.666e+01,3.334e+01,2.483e+01,1.248e+02,0.756,0.579,0.608,0.412,0.128
266.2,5.225e+01,2.882e+01,2.009e+01,1.012e+02,0.759,0.585,0.610,0.403,0.118
267.8,4.150e+01,2.519e+01,1.487e+01,8.156e+01,0.762,0.590,0.611,0.394,0.107
269.3,4.329e+01,2.466e+01,1.169e+01,7.963e+01,0.765,0.595,0.613,0.384,0.098
